Motion Sensor Data File Sep 20, 2018 1:40 PM
Time (s)	Distance (cm)	Dist Error (cm)
0.430	16.500	0.239
0.440	16.509	0.239
0.450	16.565	0.239
0.460	16.651	0.239
0.470	16.772	0.239
0.480	16.939	0.239
0.490	17.138	0.239
0.500	17.366	0.239
0.510	17.624	0.239
0.520	17.929	0.239
0.530	18.244	0.239
0.540	18.588	0.239
0.550	18.971	0.239
0.560	19.362	0.239
0.570	19.771	0.239
0.580	20.205	0.239
0.590	20.635	0.239
0.600	21.074	0.239
0.610	21.526	0.239
0.620	21.969	0.239
0.630	22.408	0.239
0.640	22.855	0.239
0.650	23.281	0.239
0.660	23.694	0.239
0.670	24.103	0.239
0.680	24.477	0.239
0.690	24.834	0.239
0.700	25.161	0.239
0.710	25.479	0.239
0.720	25.755	0.239
0.730	26.000	0.239
0.740	26.224	0.239
0.750	26.405	0.239
0.760	26.543	0.239
0.770	26.659	0.239
0.780	26.719	0.239
0.790	26.745	0.239
0.800	26.746	0.239
0.810	26.694	0.239
0.820	26.604	0.239
0.830	26.492	0.239
0.840	26.329	0.239
0.850	26.127	0.239
0.860	25.908	0.239
0.870	25.642	0.239
0.880	25.345	0.239
0.890	25.019	0.239
0.900	24.684	0.239
0.910	24.310	0.239
0.920	23.919	0.239
0.930	23.524	0.239
0.940	23.098	0.239
0.950	22.664	0.239
0.960	22.230	0.239
0.970	21.783	0.239
0.980	21.332	0.239
0.990	20.898	0.239
1.000	20.455	0.239
1.010	20.021	0.239
1.020	19.613	0.239
1.030	19.205	0.239
1.040	18.818	0.239
1.050	18.465	0.239
1.060	18.122	0.239
1.070	17.808	0.239
1.080	17.520	0.239
1.090	17.280	0.239
1.100	17.056	0.239
1.110	16.863	0.239
1.120	16.726	0.239
1.130	16.606	0.239
1.140	16.533	0.239
1.150	16.512	0.239
1.160	16.512	0.239
1.170	16.551	0.239
1.180	16.637	0.239
1.190	16.753	0.239
1.200	16.904	0.239
1.210	17.106	0.239
1.220	17.326	0.239
1.230	17.580	0.239
1.240	17.876	0.239
1.250	18.191	0.239
1.260	18.526	0.239
1.270	18.888	0.239
1.280	19.283	0.239
1.290	19.683	0.239
1.300	20.101	0.239
1.310	20.544	0.239
1.320	20.978	0.239
1.330	21.417	0.239
1.340	21.873	0.239
1.350	22.312	0.239
1.360	22.746	0.239
1.370	23.185	0.239
1.380	23.602	0.239
1.390	24.007	0.239
1.400	24.402	0.239
1.410	24.768	0.239
1.420	25.108	0.239
1.430	25.431	0.239
1.440	25.719	0.239
1.450	25.973	0.239
1.460	26.210	0.239
1.470	26.395	0.239
1.480	26.541	0.239
1.490	26.653	0.239
1.500	26.735	0.239
1.510	26.770	0.239
1.520	26.761	0.239
1.530	26.736	0.239
1.540	26.654	0.239
1.550	26.538	0.239
1.560	26.397	0.239
1.570	26.212	0.239
1.580	25.984	0.239
1.590	25.744	0.239
1.600	25.456	0.239
1.610	25.138	0.239
1.620	24.807	0.239
1.630	24.438	0.239
1.640	24.046	0.239
1.650	23.651	0.239
1.660	23.230	0.239
1.670	22.792	0.239
1.680	22.349	0.239
1.690	21.915	0.239
1.700	21.468	0.239
1.710	21.021	0.239
1.720	20.591	0.239
1.730	20.158	0.239
1.740	19.732	0.239
1.750	19.337	0.239
1.760	18.942	0.239
1.770	18.572	0.239
1.780	18.237	0.239
1.790	17.910	0.239
1.800	17.618	0.239
1.810	17.365	0.239
1.820	17.132	0.239
1.830	16.931	0.239
1.840	16.785	0.239
1.850	16.656	0.239
1.860	16.566	0.239
1.870	16.515	0.239
1.880	16.515	0.239
1.890	16.541	0.239
1.900	16.601	0.239
1.910	16.718	0.239
1.920	16.851	0.239
1.930	17.032	0.239
1.940	17.255	0.239
1.950	17.501	0.239
1.960	17.780	0.239
1.970	18.099	0.239
1.980	18.430	0.239
1.990	18.783	0.239
2.000	19.175	0.239
2.010	19.566	0.239
2.020	19.979	0.239
2.030	20.413	0.239
2.040	20.848	0.239
2.050	21.282	0.239
2.060	21.725	0.239
2.070	22.177	0.239
2.080	22.612	0.239
2.090	23.042	0.239
2.100	23.472	0.239
2.110	23.877	0.239
2.120	24.264	0.239
2.130	24.642	0.239
2.140	24.986	0.239
2.150	25.300	0.239
2.160	25.602	0.239
2.170	25.860	0.239
2.180	26.088	0.239
2.190	26.290	0.239
2.200	26.450	0.239
2.210	26.570	0.239
2.220	26.669	0.239
2.230	26.717	0.239
2.240	26.726	0.239
2.250	26.696	0.239
2.260	26.645	0.239
2.270	26.537	0.239
2.280	26.396	0.239
2.290	26.232	0.239
2.300	26.018	0.239
2.310	25.768	0.239
2.320	25.498	0.239
2.330	25.189	0.239
2.340	24.853	0.239
2.350	24.505	0.239
2.360	24.123	0.239
2.370	23.723	0.239
2.380	23.324	0.239
2.390	22.898	0.239
2.400	22.460	0.239
2.410	22.030	0.239
2.420	21.587	0.239
2.430	21.141	0.239
2.440	20.702	0.239
2.450	20.277	0.239
2.460	19.855	0.239
2.470	19.443	0.239
2.480	19.061	0.239
2.490	18.682	0.239
2.500	18.330	0.239
2.510	18.012	0.239
2.520	17.711	0.239
2.530	17.441	0.239
2.540	17.217	0.239
2.550	17.011	0.239
2.560	16.844	0.239
2.570	16.724	0.239
2.580	16.620	0.239
2.590	16.561	0.239
2.600	16.552	0.239
2.610	16.570	0.239
2.620	16.626	0.239
2.630	16.721	0.239
2.640	16.858	0.239
2.650	17.026	0.239
2.660	17.228	0.239
2.670	17.478	0.239
2.680	17.745	0.239
2.690	18.042	0.239
2.700	18.377	0.239
2.710	18.726	0.239
2.720	19.096	0.239
2.730	19.496	0.239
2.740	19.900	0.239
2.750	20.317	0.239
2.760	20.757	0.239
2.770	21.191	0.239
2.780	21.629	0.239
2.790	22.081	0.239
2.800	22.516	0.239
2.810	22.946	0.239
2.820	23.376	0.239
2.830	23.785	0.239
2.840	24.172	0.239
2.850	24.542	0.239
2.860	24.903	0.239
2.870	25.226	0.239
2.880	25.519	0.239
2.890	25.794	0.239
2.900	26.031	0.239
2.910	26.229	0.239
2.920	26.405	0.239
2.930	26.534	0.239
2.940	26.629	0.239
2.950	26.698	0.239
2.960	26.716	0.239
2.970	26.694	0.239
2.980	26.652	0.239
2.990	26.553	0.239
3.000	26.420	0.239
3.010	26.261	0.239
3.020	26.055	0.239
3.030	25.814	0.239
3.040	25.544	0.239
3.050	25.252	0.239
3.060	24.925	0.239
3.070	24.568	0.239
3.080	24.207	0.239
3.090	23.816	0.239
3.100	23.404	0.239
3.110	22.996	0.239
3.120	22.562	0.239
3.130	22.119	0.239
3.140	21.689	0.239
3.150	21.242	0.239
3.160	20.800	0.239
3.170	20.374	0.239
3.180	19.949	0.239
3.190	19.528	0.239
3.200	19.137	0.239
3.210	18.754	0.239
3.220	18.398	0.239
3.230	18.062	0.239
3.240	17.766	0.239
3.250	17.491	0.239
3.260	17.246	0.239
3.270	17.049	0.239
3.280	16.864	0.239
3.290	16.722	0.239
3.300	16.628	0.239
3.310	16.555	0.239
3.320	16.521	0.239
3.330	16.543	0.239
3.340	16.586	0.239
3.350	16.668	0.239
3.360	16.801	0.239
3.370	16.960	0.239
3.380	17.158	0.239
3.390	17.404	0.239
3.400	17.666	0.239
3.410	17.955	0.239
3.420	18.269	0.239
3.430	18.622	0.239
3.440	18.983	0.239
3.450	19.365	0.239
3.460	19.779	0.239
3.470	20.196	0.239
3.480	20.622	0.239
3.490	21.069	0.239
3.500	21.508	0.239
3.510	21.947	0.239
3.520	22.398	0.239
3.530	22.829	0.239
3.540	23.250	0.239
3.550	23.672	0.239
3.560	24.063	0.239
3.570	24.437	0.239
3.580	24.803	0.239
3.590	25.130	0.239
3.600	25.431	0.239
3.610	25.702	0.239
3.620	25.961	0.239
3.630	26.172	0.239
3.640	26.353	0.239
3.650	26.507	0.239
3.660	26.615	0.239
3.670	26.684	0.239
3.680	26.723	0.239
3.690	26.719	0.239
3.700	26.668	0.239
3.710	26.599	0.239
3.720	26.470	0.239
3.730	26.311	0.239
3.740	26.127	0.239
3.750	25.890	0.239
3.760	25.628	0.239
3.770	25.345	0.239
3.780	25.023	0.239
3.790	24.675	0.239
3.800	24.309	0.239
3.810	23.936	0.239
3.820	23.531	0.239
3.830	23.110	0.239
3.840	22.698	0.239
3.850	22.255	0.239
3.860	21.813	0.239
3.870	21.379	0.239
3.880	20.936	0.239
3.890	20.498	0.239
3.900	20.081	0.239
3.910	19.664	0.239
3.920	19.260	0.239
3.930	18.886	0.239
3.940	18.525	0.239
3.950	18.186	0.239
3.960	17.885	0.239
3.970	17.602	0.239
3.980	17.348	0.239
3.990	17.138	0.239
4.000	16.944	0.239
4.010	16.794	0.239
4.020	16.678	0.239
4.030	16.610	0.239
4.040	16.567	0.239
4.050	16.563	0.239
4.060	16.610	0.239
4.070	16.688	0.239
4.080	16.795	0.239
4.090	16.955	0.239
4.100	17.140	0.239
4.110	17.355	0.239
4.120	17.618	0.239
4.130	17.897	0.239
4.140	18.203	0.239
4.150	18.547	0.239
4.160	18.900	0.239
4.170	19.278	0.239
4.180	19.687	0.239
4.190	20.096	0.239
4.200	20.517	0.239
4.210	20.943	0.239
4.220	21.395	0.239
4.230	21.829	0.239
4.240	22.264	0.239
4.250	22.707	0.239
4.260	23.133	0.239
4.270	23.542	0.239
4.280	23.950	0.239
4.290	24.324	0.239
4.300	24.677	0.239
4.310	25.021	0.239
4.320	25.327	0.239
4.330	25.606	0.239
4.340	25.869	0.239
4.350	26.089	0.239
4.360	26.274	0.239
4.370	26.437	0.239
4.380	26.554	0.239
4.390	26.631	0.239
4.400	26.670	0.239
4.410	26.683	0.239
4.420	26.645	0.239
4.430	26.563	0.239
4.440	26.460	0.239
4.450	26.306	0.239
4.460	26.117	0.239
4.470	25.906	0.239
4.480	25.649	0.239
4.490	25.365	0.239
4.500	25.064	0.239
4.510	24.729	0.239
4.520	24.368	0.239
4.530	24.003	0.239
4.540	23.603	0.239
4.550	23.191	0.239
4.560	22.783	0.239
4.570	22.344	0.239
4.580	21.906	0.239
4.590	21.463	0.239
4.600	21.033	0.239
4.610	20.591	0.239
4.620	20.157	0.239
4.630	19.748	0.239
4.640	19.341	0.239
4.650	18.954	0.239
4.660	18.597	0.239
4.670	18.257	0.239
4.680	17.940	0.239
4.690	17.664	0.239
4.700	17.407	0.239
4.710	17.175	0.239
4.720	16.990	0.239
4.730	16.827	0.239
4.740	16.698	0.239
4.750	16.621	0.239
4.760	16.570	0.239
4.770	16.561	0.239
4.780	16.587	0.239
4.790	16.665	0.239
4.800	16.773	0.239
4.810	16.911	0.239
4.820	17.104	0.239
4.830	17.311	0.239
4.840	17.552	0.239
4.850	17.836	0.239
4.860	18.137	0.239
4.870	18.460	0.239
4.880	18.825	0.239
4.890	19.195	0.239
4.900	19.587	0.239
4.910	20.008	0.239
4.920	20.426	0.239
4.930	20.852	0.239
4.940	21.299	0.239
4.950	21.738	0.239
4.960	22.172	0.239
4.970	22.603	0.239
4.980	23.037	0.239
4.990	23.450	0.239
5.000	23.850	0.239
5.010	24.241	0.239
5.020	24.607	0.239
5.030	24.947	0.239
5.040	25.274	0.239
5.050	25.562	0.239
5.060	25.825	0.239
5.070	26.066	0.239
5.080	26.260	0.239
5.090	26.419	0.239
5.100	26.557	0.239
5.110	26.638	0.239
5.120	26.686	0.239
5.130	26.708	0.239
5.140	26.678	0.239
5.150	26.605	0.239
5.160	26.511	0.239
5.170	26.369	0.239
5.180	26.193	0.239
5.190	25.978	0.239
5.200	25.746	0.239
5.210	25.471	0.239
5.220	25.166	0.239
5.230	24.848	0.239
5.240	24.496	0.239
5.250	24.118	0.239
5.260	23.735	0.239
5.270	23.327	0.239
5.280	22.902	0.239
5.290	22.480	0.239
5.300	22.038	0.239
5.310	21.595	0.239
5.320	21.170	0.239
5.330	20.732	0.239
5.340	20.297	0.239
5.350	19.889	0.239
5.360	19.481	0.239
5.370	19.090	0.239
5.380	18.720	0.239
5.390	18.381	0.239
5.400	18.059	0.239
5.410	17.758	0.239
5.420	17.500	0.239
5.430	17.260	0.239
5.440	17.053	0.239
5.450	16.890	0.239
5.460	16.753	0.239
5.470	16.650	0.239
5.480	16.598	0.239
5.490	16.577	0.239
5.500	16.595	0.239
5.510	16.664	0.239
5.520	16.754	0.239
5.530	16.879	0.239
5.540	17.060	0.239
5.550	17.254	0.239
5.560	17.482	0.239
5.570	17.744	0.239
5.580	18.045	0.239
5.590	18.360	0.239
5.600	18.704	0.239
5.610	19.082	0.239
5.620	19.470	0.239
5.630	19.874	0.239
5.640	20.304	0.239
5.650	20.730	0.239
5.660	21.160	0.239
5.670	21.607	0.239
5.680	22.042	0.239
5.690	22.472	0.239
5.700	22.907	0.239
5.710	23.320	0.239
5.720	23.715	0.239
5.730	24.115	0.239
5.740	24.481	0.239
5.750	24.821	0.239
5.760	25.144	0.239
5.770	25.453	0.239
5.780	25.716	0.239
5.790	25.953	0.239
5.800	26.172	0.239
5.810	26.340	0.239
5.820	26.474	0.239
5.830	26.581	0.239
5.840	26.637	0.239
5.850	26.651	0.239
5.860	26.642	0.239
5.870	26.582	0.239
5.880	26.488	0.239
5.890	26.363	0.239
5.900	26.196	0.239
5.910	25.994	0.239
5.920	25.771	0.239
5.930	25.508	0.239
5.940	25.216	0.239
5.950	24.894	0.239
5.960	24.563	0.239
5.970	24.194	0.239
5.980	23.807	0.239
5.990	23.412	0.239
6.000	22.995	0.239
6.010	22.565	0.239
6.020	22.144	0.239
6.030	21.701	0.239
6.040	21.259	0.239
6.050	20.838	0.239
6.060	20.404	0.239
6.070	19.983	0.239
6.080	19.587	0.239
6.090	19.192	0.239
6.100	18.818	0.239
6.110	18.478	0.239
6.120	18.148	0.239
6.130	17.842	0.239
6.140	17.568	0.239
6.150	17.336	0.239
6.160	17.121	0.239
6.170	16.941	0.239
6.180	16.812	0.239
6.190	16.705	0.239
6.200	16.631	0.239
6.210	16.610	0.239
6.220	16.619	0.239
6.230	16.667	0.239
6.240	16.761	0.239
6.250	16.878	0.239
6.260	17.037	0.239
6.270	17.235	0.239
6.280	17.459	0.239
6.290	17.713	0.239
6.300	18.010	0.239
6.310	18.320	0.239
6.320	18.655	0.239
6.330	19.012	0.239
6.340	19.408	0.239
6.350	19.804	0.239
6.360	20.213	0.239
6.370	20.647	0.239
6.380	21.077	0.239
6.390	21.507	0.239
6.400	21.955	0.239
6.410	22.385	0.239
6.420	22.806	0.239
6.430	23.237	0.239
6.440	23.641	0.239
6.450	24.032	0.239
6.460	24.415	0.239
6.470	24.768	0.239
6.480	25.095	0.239
6.490	25.413	0.239
6.500	25.685	0.239
6.510	25.926	0.239
6.520	26.145	0.239
6.530	26.322	0.239
6.540	26.455	0.239
6.550	26.554	0.239
6.560	26.632	0.239
6.570	26.658	0.239
6.580	26.645	0.239
6.590	26.611	0.239
6.600	26.525	0.239
6.610	26.401	0.239
6.620	26.259	0.239
6.630	26.066	0.239
6.640	25.838	0.239
6.650	25.593	0.239
6.660	25.301	0.239
6.670	24.988	0.239
6.680	24.657	0.239
6.690	24.292	0.239
6.700	23.909	0.239
6.710	23.518	0.239
6.720	23.101	0.239
6.730	22.676	0.239
6.740	22.242	0.239
6.750	21.816	0.239
6.760	21.378	0.239
6.770	20.940	0.239
6.780	20.518	0.239
6.790	20.097	0.239
6.800	19.685	0.239
6.810	19.298	0.239
6.820	18.916	0.239
6.830	18.554	0.239
6.840	18.228	0.239
6.850	17.914	0.239
6.860	17.627	0.239
6.870	17.386	0.239
6.880	17.163	0.239
6.890	16.974	0.239
6.900	16.832	0.239
6.910	16.721	0.239
6.920	16.639	0.239
6.930	16.596	0.239
6.940	16.605	0.239
6.950	16.640	0.239
6.960	16.709	0.239
6.970	16.829	0.239
6.980	16.971	0.239
6.990	17.152	0.239
7.000	17.380	0.239
7.010	17.621	0.239
7.020	17.897	0.239
7.030	18.215	0.239
7.040	18.546	0.239
7.050	18.903	0.239
7.060	19.291	0.239
7.070	19.682	0.239
7.080	20.091	0.239
7.090	20.521	0.239
7.100	20.943	0.239
7.110	21.373	0.239
7.120	21.807	0.239
7.130	22.250	0.239
7.140	22.676	0.239
7.150	23.094	0.239
7.160	23.511	0.239
7.170	23.902	0.239
7.180	24.277	0.239
7.190	24.646	0.239
7.200	24.978	0.239
7.210	25.283	0.239
7.220	25.576	0.239
7.230	25.825	0.239
7.240	26.045	0.239
7.250	26.239	0.239
7.260	26.385	0.239
7.270	26.497	0.239
7.280	26.588	0.239
7.290	26.622	0.239
7.300	26.623	0.239
7.310	26.588	0.239
7.320	26.524	0.239
7.330	26.417	0.239
7.340	26.271	0.239
7.350	26.103	0.239
7.360	25.884	0.239
7.370	25.635	0.239
7.380	25.369	0.239
7.390	25.060	0.239
7.400	24.728	0.239
7.410	24.385	0.239
7.420	24.006	0.239
7.430	23.611	0.239
7.440	23.212	0.239
7.450	22.795	0.239
7.460	22.361	0.239
7.470	21.939	0.239
7.480	21.501	0.239
7.490	21.067	0.239
7.500	20.633	0.239
7.510	20.225	0.239
7.520	19.808	0.239
7.530	19.408	0.239
7.540	19.039	0.239
7.550	18.674	0.239
7.560	18.334	0.239
7.570	18.029	0.239
7.580	17.737	0.239
7.590	17.480	0.239
7.600	17.260	0.239
7.610	17.067	0.239
7.620	16.904	0.239
7.630	16.792	0.239
7.640	16.702	0.239
7.650	16.651	0.239
7.660	16.647	0.239